step,time,step_time,temperature,pressure,kinetic,potential,total_energy,box_x,box_y,box_z,area_per_lipid,thickness_proxy,barostat_scale
1.0,0.002,0.005090040998766199,1.0413454923285828,0.14343435367868912,998.1262345455857,341.3838924526786,1339.5101269982642,15.999972589899318,15.999972589899318,19.999965737374147,3.9999862949613982,6.417804719400766,0.9999982868687074
10.0,0.02,0.0050789579981938004,1.0376410060851133,0.1477652256025714,994.5755138765578,401.35850589307177,1395.9340197696297,15.999726268781565,15.999726268781565,19.999657835976954,3.9998631355615446,6.417576178390295,0.9999982955304512
20.0,0.04,0.005164541013073176,1.0342751658353093,0.14099482981759728,991.3493401475314,323.4704927002091,1314.8198328477406,15.99945226877779,15.99945226877779,19.999315335972238,3.999726139076543,6.418759764659164,0.9999982819896597
30.0,0.06,0.005038625007728115,1.0317008511283285,0.14253536759602767,988.8818740728475,340.05219979612525,1328.9340738689727,15.999178319598398,15.999178319598398,19.998972899497993,3.9995891703485533,6.421456315210606,0.9999982850707352
40.0,0.08,0.005095500004244968,1.0297056591823117,0.13980004102663374,986.969478353063,307.5286691513967,1294.4981475044597,15.998904273622545,15.998904273622545,19.99863034202818,3.9994521555709017,6.425658323652284,0.999998279600082
50.0,0.1,0.005079249996924773,1.0281194877363302,0.14365378972681914,985.4491534440089,367.32545046629616,1352.774603910305,15.998630489560393,15.998630489560393,19.99828811195049,3.999315274085803,6.431359926214686,0.9999982873075794
60.0,0.12,0.005045792000601068,1.0271143089282178,0.14145060632622525,984.4856841806396,338.3403343728071,1322.8260185534468,15.99835635527001,15.99835635527001,19.99794544408751,3.999178219847005,6.43855335264128,0.9999982829012126
70.0,0.14,0.005028832994867116,1.0266420227216946,0.14422481022362632,984.0330103259516,371.9454807569142,1355.9784910828657,15.998082404563203,15.998082404563203,19.997603005703997,3.999041259737418,6.447218926832946,0.9999982884496205
80.0,0.16,0.005040083982748911,1.0268327154445371,0.14327236815718883,984.2157849254854,365.2944309668394,1349.5102158923248,15.997808353935769,15.997808353935769,19.997260442419698,3.9989042520196416,6.457369104180573,0.9999982865447363
90.0,0.18,0.005187625007238239,1.0277726313685351,0.14258569601150886,985.1166885454909,345.2954313175639,1330.4121198630548,15.997534323356676,15.997534323356676,19.996917904195833,3.9987672566714836,6.469001487112044,0.999998285171392
100.0,0.2,0.005052709020674229,1.0296645321655733,0.14524540099465383,986.9300797399511,382.4435626429658,1369.3736423829168,15.997260297572762,15.997260297572762,19.996575371965935,3.9986302660671527,6.482102641580146,0.999998290490802
110.0,0.22,0.005387916986364871,1.0326806856468287,0.14443358688505728,989.8210497532102,364.8529229185676,1354.6739726717778,15.996986558330653,15.996986558330653,19.996233197913305,3.998493421053306,6.496672052977345,0.9999982888671738
120.0,0.24,0.005103250005049631,1.0402564655935456,0.14775859412723408,997.0824232430184,399.80189560294895,1396.8843188459673,15.996713533250798,15.996713533250798,19.99589191656349,3.998356935388894,6.512696349636573,0.9999982955171882
130.0,0.26,0.005191000003833324,1.0461122710045705,0.1464610555661186,1002.6951883915443,381.25736481959257,1383.952553211137,15.996440613625527,15.996440613625527,19.9955507670319,3.9982205047695034,6.530177293308664,0.9999982929221112
140.0,0.28,0.005117291992064565,1.0403553196559439,0.14460760323371616,997.1771619704164,362.2596239827532,1359.4367859531696,15.996167345823684,15.996167345823684,19.9952091822796,3.9980839024311865,6.549109699190721,0.9999982892152065
150.0,0.3,0.005037208989961073,1.0353537189965953,0.1479990063113235,992.3831576038465,419.4846189459106,1411.867776549757,15.995894220048703,15.995894220048703,19.99486777506087,3.9979473734216797,6.569486559167509,0.9999982959980126
160.0,0.32,0.00506008299998939,1.0351621555215011,0.14244962285181248,992.1995226143038,343.32554100876655,1335.5250636230703,15.995620860399343,15.995620860399343,19.99452607549917,3.997810729838166,6.5912922784438965,0.9999982848992457
170.0,0.34,0.005067833000794053,1.0374833528370384,0.14757387781097842,994.4244029922795,431.10993186876846,1425.534334861048,15.995347554939752,15.995347554939752,19.99418444367468,3.9976741156768294,6.614540519604302,0.9999982951477556
180.0,0.36,0.0051075829833280295,1.0423986909584304,0.145917482424014,999.1357318974644,388.6599712413037,1387.7957031387682,15.995074680938332,15.995074680938332,19.993843351172906,3.997537719512414,6.639224760435292,0.9999982918349648
190.0,0.38,0.005075958993984386,1.053040692729196,0.14463180857377772,1009.3360505562639,354.05881917043484,1363.3948697266987,15.994802169612989,15.994802169612989,19.99350271201622,3.997401506954006,6.665317237200732,0.9999982892636171
200.0,0.4,0.005069709004601464,1.05012602314448,0.14895605883288143,1006.5423667281051,413.44716930961596,1419.989536037721,15.99452976488943,15.99452976488943,19.993162206111766,3.9972653499989677,6.6928112905715995,0.9999982979121177
210.0,0.42,0.0050475000170990825,1.0509798734930236,0.15137962282899603,1007.3607892667857,457.35114058832573,1464.7119298551115,15.994257812337683,15.994257812337683,19.992822265422088,3.997129421367578,6.721709496964371,0.9999983027592456
220.0,0.44,0.005099292000522837,1.041725001506498,0.14883228722466604,998.4900144054508,433.28555915969287,1431.7755735651435,15.993985307314277,15.993985307314277,19.992481634142834,3.9969932189153905,6.751983388909568,0.9999982976645745
230.0,0.46,0.005049542000051588,1.0415677567555413,0.1481744372177196,998.3392931977721,418.4549189456367,1416.794212143409,15.99371235373914,15.99371235373914,19.99214044217391,3.996856794596062,6.783668420570649,0.9999982963488744
240.0,0.48,0.005057583999587223,1.0432694594290355,0.147595834541222,999.9703673383858,411.2608167170476,1411.2311840554335,15.993439423159996,15.993439423159996,19.99179927894998,3.9967203840982557,6.816756536469626,0.999998295191669
250.0,0.5,0.0050551250169519335,1.0457137021627407,0.14654859677450557,1002.3131618119285,396.8187601112012,1399.1319219231295,15.993166265218445,15.993166265218445,19.99145783152305,3.9965838622956453,6.851226729062417,0.9999982930971936
260.0,0.52,0.0050768750079441816,1.04840271078729,0.1459065343853698,1004.8905651989593,394.6563746766485,1399.5469398756077,15.992894029450994,15.992894029450994,19.991117536813736,3.9964478037070195,6.887014626359909,0.9999982918130688
270.0,0.54,0.005057000002125278,1.0514003878504827,0.14925992018235598,1007.7638423655682,433.4368435637575,1441.2006859293256,15.992621550234396,15.992621550234396,19.99077693779299,3.996311625765963,6.924047452665972,0.9999982985198403
280.0,0.56,0.0051824589900206774,1.054284859967723,0.1473473838156104,1010.5285917508563,413.1253347681409,1423.6539265189972,15.992349568807162,15.992349568807162,19.990436961008946,3.9961756989207284,6.962321407913068,0.9999982946947676
290.0,0.58,0.00510308300727047,1.0574771739376672,0.14731233375570818,1013.5884141130531,397.6347167162402,1411.2231308292933,15.992077698652585,15.992077698652585,19.990097123315724,3.9960398299959587,7.001851733357485,0.9999982946246675
300.0,0.6,0.005068625003332272,1.062341793553069,0.1507491543649773,1018.2511501092026,446.38522312136877,1464.6363732305713,15.991805959348241,15.991805959348241,19.98975744918529,3.9959040287725927,7.0426778956692875,0.9999983014983087
310.0,0.62,0.0050431659910827875,1.078794258813933,0.15180293371299577,1034.0207888506293,444.0563670602661,1478.0771559108953,15.991534554952336,15.991534554952336,19.989418193690415,3.995768397222416,7.084800814455657,0.9999983036058674
320.0,0.64,0.005150499986484647,1.0678672953657904,0.15008808463670678,1023.5473228989752,421.607499829185,1445.15482272816,15.991263496029932,15.991263496029932,19.989079370037405,3.9956329406165536,7.128216695786396,0.9999983001761693
330.0,0.66,0.005052124994108453,1.0677217398602457,0.1478179101216491,1023.4077991279386,399.44339802185164,1422.85119714979,15.990991784053588,15.990991784053588,19.988739730066968,3.9954971599635836,7.172921140798295,0.9999982956358202
340.0,0.68,0.005081624985905364,1.0711882043438445,0.15494142047245155,1026.7304232653644,492.2763265494747,1519.0067498148392,15.99072047522757,15.99072047522757,19.98840059403445,3.9953615830759728,7.218923050572133,0.999998309882841
350.0,0.7000000000000001,0.005096958018839359,1.0789415355878886,0.15117936133903712,1034.1619505800204,427.88333271946,1462.0452832994804,15.990449699398338,15.990449699398338,19.98806212424791,3.9952262748279437,7.266178706319583,0.9999983023587227
360.0,0.72,0.005050125007983297,1.0860354725148003,0.15524401649751263,1040.9614829627567,477.05876357166466,1518.0202465344214,15.990179211753363,15.990179211753363,19.987724014691686,3.9950911128748343,7.314648618774394,0.999998310488033
370.0,0.74,0.005359290982596576,1.0814001694673756,0.14813561012324536,1036.518530532551,380.137802893664,1416.656333426215,15.989908627194977,15.989908627194977,19.987385783993705,3.9949559047819427,7.364268183823752,0.9999982962712203
380.0,0.76,0.005273208022117615,1.0830008496231092,0.15888077468896258,1038.0528218501959,531.3632554304812,1569.4160772806772,15.989638521347244,15.989638521347244,19.98704815168404,3.99482093817737,7.415022580045589,0.9999983177615493
390.0,0.78,0.005192542012082413,1.086819791042797,0.15320043211619896,1041.713241216267,452.6660529314466,1494.3792941477136,15.989368165156371,15.989368165156371,19.986710206445455,3.9946858487643127,7.466893491871289,0.9999983064008642
400.0,0.8,0.005037458002334461,1.0937406365339923,0.15626966447050836,1048.3468620206772,493.4057047952264,1541.7525668159037,15.98909812435308,15.98909812435308,19.986372655441336,3.9945509192217368,7.519888842659764,0.9999983125393289
410.0,0.8200000000000001,0.005072166997706518,1.1062936505950391,0.16093750753041744,1060.378905189718,534.0876386306496,1594.4665438203674,15.988828433892326,15.988828433892326,19.986035542365393,3.9944161670069334,7.573999154805664,0.999998321875015
420.0,0.84,0.005078832997241989,1.0965892462119367,0.1574770636428098,1051.077250258423,503.71172518187046,1554.7889754402934,15.988559491685907,15.988559491685907,19.985699364607363,3.9942817909246795,7.629182235629323,0.9999983149541273
430.0,0.86,0.005192209006054327,1.0968905805205902,0.15647276201989124,1051.3660739963266,505.1114861351954,1556.4775601315218,15.988290249705079,15.988290249705079,19.985362812131328,3.9941472673252263,7.685453240205966,0.999998312945524
440.0,0.88,0.005187166010728106,1.099813680007608,0.15751714381731668,1054.167859804916,509.31786484033364,1563.4857246452495,15.988020894251681,15.988020894251681,19.985026117814577,3.9940126892973176,7.742801985823742,0.9999983150342876
450.0,0.9,0.005055082991020754,1.1040226646625708,0.15858669554590724,1058.2021625285704,521.6951868788065,1579.8973494073769,15.987751878378813,15.987751878378813,19.984689847973495,3.993878283196957,7.801233814825816,0.999998317173391
460.0,0.92,0.005193624994717538,1.108790891259093,0.16026124041003004,1062.7724994578057,529.320832019827,1592.0933314776325,15.987482974814423,15.987482974814423,19.98435371851801,3.9937439354684536,7.860742870679388,0.9999983205224808
470.0,0.9400000000000001,0.005181541986530647,1.1137882640533951,0.1614149635857041,1067.562470118519,552.309975534981,1619.8724456535,15.987214297134477,15.987214297134477,19.98401787141807,3.9936097028515785,7.921275085053759,0.9999983228299272
480.0,0.96,0.005056666006566957,1.1193098352936643,0.1595546282092497,1072.8548704162417,523.7462723741472,1596.601142790389,15.986945848918877,15.986945848918877,19.98368231114857,3.993475587129133,7.982802121971405,0.9999983191092564
490.0,0.98,0.005240541999228299,1.1253378213134977,0.16622890077905553,1078.632704388887,605.096029882107,1683.7287342709942,15.986678119591483,15.986678119591483,19.983347649489335,3.993341832803517,8.045276010487278,0.9999983324578016
500.0,1.0,0.005065750010544434,1.1324793057125557,0.16408115546363608,1085.4777850310397,563.4599174372287,1648.9377024682685,15.986410990868407,15.986410990868407,19.983013738585488,3.993208380764972,8.108648390501203,0.9999983281623109
