step,time,step_time,temperature,pressure,kinetic,potential,total_energy,box_x,box_y,box_z,area_per_lipid,thickness_proxy,barostat_scale
1.0,0.002,0.003932400999474339,0.9753111975093254,0.06391960366181113,934.8322824901646,662.1212339792652,1596.9535164694298,15.999970045427316,15.999970045427316,19.999962556784144,3.999985022727678,6.398928646550682,0.9999981278392073
10.0,0.02,0.0030208010011847364,0.9770215532840795,0.06376082445900422,936.4716517671513,666.0121968000876,1602.483848567239,15.999701051000379,15.999701051000379,19.999626313750472,3.9998505268966036,6.392205130546916,0.999998127521649
20.0,0.04,0.0028121070008637616,0.9792279595423236,0.06976438143769416,938.5865067851719,665.0436505656324,1603.6301573508044,15.999401827476216,15.999401827476216,19.99925228434527,3.999700919328895,6.384297978656391,0.9999981395287629
30.0,0.06,0.00272167100047227,0.9813637474137789,0.06898746150144357,940.633648919438,663.4708636313236,1604.1045125507617,15.999103860550601,15.999103860550601,19.998879825688253,3.9995519428232056,6.375921680787898,0.999998137974923
40.0,0.08,0.0026228930000797845,0.9836438141501452,0.060870496033036896,942.8190541361733,661.0921382971841,1603.9111924333574,15.998804043934442,15.998804043934442,19.998505054918052,3.9994020443158287,6.367047839866198,0.9999981217409921
50.0,0.1,0.0026271049991919426,0.9859640878590396,0.059154189360988964,945.0430216437796,661.1316872919193,1606.174708935699,15.998502635634598,15.998502635634598,19.998128294543246,3.999251352850112,6.357651939916995,0.9999981183083787
60.0,0.12,0.0029141489994799485,0.9883640402402256,0.069914345802591,947.3434081183682,656.9033070406215,1604.2467151589897,15.998203786196905,15.998203786196905,19.99775473274613,3.999101943510703,6.347740372081977,0.9999981398286916
70.0,0.14,0.0032852799995453097,0.9907060067254323,0.06845905909934699,949.5881691154125,656.9193488006966,1606.507517916109,15.997905116891305,15.997905116891305,19.997381396114125,3.9989526270165157,6.337320806215972,0.9999981369181182
80.0,0.16,0.0025487110015092185,0.9929789611448304,0.07741680925687185,951.7668219113132,653.1095642929246,1604.8763862042379,15.997608015414741,15.997608015414741,19.997010019268416,3.9988040971072185,6.326408325633704,0.9999981548336185
90.0,0.18,0.0027280590002192184,0.9951649364274481,0.07815476398506002,953.8620743031458,652.1521688048182,1606.014243107964,15.997312973422481,15.997312973422481,19.996641216778087,3.998656599525488,6.315011362593423,0.9999981563095279
100.0,0.2,0.003282442001363961,0.9971000247030792,0.07819496375990533,955.716849729735,650.3162923681072,1606.0331420978423,15.997018150103058,15.997018150103058,19.9962726876288,3.998509213980104,6.303122380697847,0.9999981563899275
110.0,0.22,0.002706473000216647,0.9989200879058214,0.08707564687571738,957.4614078888085,649.8807221603499,1607.3421300491584,15.996724191915797,15.996724191915797,19.995905239894718,3.998362263628502,6.290754387755902,0.9999981741512938
120.0,0.24,0.0026930789990728954,1.0004493847713438,0.08599404783547779,958.9272294329384,651.3462576583177,1610.273487091256,15.996432034927327,15.996432034927327,19.99554004365913,3.998216216375769,6.277929177665918,0.9999981719880957
130.0,0.26,0.003445578999162535,1.0020583637097704,0.08717153803966597,960.469434630864,651.3592144536055,1611.8286490844696,15.996139721870698,15.996139721870698,19.995174652338346,3.9980700937751497,6.264652817170833,0.999998174343076
140.0,0.28,0.0029167940010665916,1.0037737618952032,0.08675216170763701,962.1136361741294,649.9763986669323,1612.0900348410617,15.99584765090503,15.99584765090503,19.994809563631264,3.997924094858812,6.250927350465544,0.9999981735043234
150.0,0.3,0.0030210920012905262,1.0054485630568686,0.09503264231450886,963.7189591437376,649.563835974504,1613.2827951182417,15.995556381821888,15.995556381821888,19.99444547727734,3.997778499438171,6.236752092802265,0.9999981900652847
160.0,0.32,0.002581474000180606,1.0065756516530093,0.09622192130695803,964.799274242215,649.5809390926703,1614.3802133348854,15.995266985563074,15.995266985563074,19.994083731953815,3.997633842803813,6.222122959211453,0.9999981924438426
170.0,0.34,0.002567421999629005,1.0077237011550977,0.09902745454185963,965.8996865513552,646.6636818301317,1612.563368381487,15.99497797876639,15.99497797876639,19.993722473457957,3.9974893834565894,6.20703816207532,0.9999981980549091
180.0,0.36,0.0026597119995130925,1.0086980379182313,0.1007428768108832,966.8335916072656,645.1623178294699,1611.9959094367355,15.994690321677222,15.994690321677222,19.993362902096496,3.9973456013492967,6.191487049206605,0.9999982014857536
190.0,0.38,0.0027101390005555004,1.0097612068235406,0.1012699642186509,967.852637378041,644.3413865249968,1612.1940239030378,15.994402702264821,15.994402702264821,19.993003377830995,3.9972018406596286,6.175465899170469,0.9999982025399284
200.0,0.4,0.0032508280000911327,1.010941482629138,0.10289680189124739,968.9839339763264,638.5892780384611,1607.5732120147875,15.994115668486904,15.994115668486904,19.9926445856086,3.9970583752646607,6.158970458738583,0.9999982057936038
210.0,0.42,0.003156201000820147,1.012220575967459,0.1032285853526311,970.2099418292786,635.6823771044607,1605.8923189337393,15.993828884752164,15.993828884752164,19.992286105940174,3.9969150374176974,6.141998879139546,0.9999982064571707
220.0,0.44,0.002642321000166703,1.0134702872764432,0.10144447053661097,971.4077788897346,632.5021552235781,1603.9099341133128,15.993541898875131,15.993541898875131,19.99192737359388,3.9967716011105368,6.124547729839504,0.999998202888941
230.0,0.46,0.0034749349997582613,1.0144887979012494,0.10414298228466372,972.38402831076,631.6951375086815,1604.0791658194414,15.993255199099405,15.993255199099405,19.991568998874225,3.996628310367502,6.106612033264971,0.9999982082859645
240.0,0.48,0.0029415320004773093,1.0151814784605862,0.10739464667926198,973.0479729038502,633.4730518239758,1606.521024727826,15.992969277698313,15.992969277698313,19.991211597122867,3.9964854112094077,6.088195089713212,0.9999982147892934
250.0,0.5,0.002712688999963575,1.0159840766922332,0.10950898293946862,973.8172687981186,628.606760034602,1602.4240288327205,15.992684373589995,15.992684373589995,19.990855466987465,3.9963430230198376,6.069299008612749,0.9999982190179659
260.0,0.52,0.0026149050008825725,1.0168569974894959,0.1106970353963512,974.6539650337897,626.1643603138292,1600.818325347619,15.992399587427197,15.992399587427197,19.99049948428397,3.9962006963115875,6.049921446643898,0.9999982213940708
270.0,0.54,0.0035922959996241843,1.0178283161022204,0.1106505397343154,975.584970430851,622.6174429864508,1598.2024134173016,15.99211517368475,15.99211517368475,19.990143967105908,3.996058558256219,6.030059746779118,0.9999982213010795
280.0,0.56,0.0026455200004420476,1.0187721326135064,0.11081065677446418,976.48961596414,619.7266664018601,1596.216282366,15.99183071388588,15.99183071388588,19.989788392357323,3.9959163997122467,6.009714939897437,0.9999982216213136
290.0,0.58,0.00292979500045476,1.0197554806371798,0.10738835611638116,977.4321383121605,617.9010316759299,1595.3331699880905,15.991546108933646,15.991546108933646,19.989432636167027,3.995774171158607,5.988881620812275,0.9999982147767122
300.0,0.6,0.0027426100004959153,1.0206316490817988,0.10684947988272521,978.2719406591691,617.8095905836703,1596.0815312428394,15.991260449255911,15.991260449255911,19.98907556156986,3.995631418061506,5.967556885564382,0.9999982136989598
310.0,0.62,0.003227733999665361,1.0214172047678653,0.10645009041057388,979.0248915302058,618.7253478771054,1597.7502394073113,15.990974673223779,15.990974673223779,19.98871834152969,3.9954886093700677,5.945741282456868,0.9999982129001809
320.0,0.64,0.002652982000654447,1.022310402869564,0.10498895236627898,979.8810131237296,616.1093422592742,1595.9903553830038,15.990688674490919,15.990688674490919,19.988360843113615,3.9953456919451895,5.923431675639748,0.9999982099779048
330.0,0.66,0.0027174550014024135,1.023381839503857,0.1055909498541882,980.907983823118,611.2141081177695,1592.1220919408875,15.990402571002916,15.990402571002916,19.988003213753608,3.99520272473026,5.900635956363381,0.9999982111818997
340.0,0.68,0.003327733998958138,1.0246410695215078,0.10500252567811731,982.1149491653289,605.2283896660164,1587.3433388313451,15.990116549666551,15.990116549666551,19.987645687083152,3.995059801123752,5.8773423059128325,0.9999982100050514
350.0,0.7000000000000001,0.003034575000128825,1.0262467938598403,0.10683027493927369,983.654037625215,603.6471361397656,1587.3011737649806,15.989830597061086,15.989830597061086,19.987288246326315,3.9949169144173577,5.8535426745874,0.9999982136605499
360.0,0.72,0.0028600440000445815,1.0280547532238344,0.10813957104014786,985.3869656450725,600.2559105332773,1585.6428761783498,15.98954522879911,15.98954522879911,19.986931535998846,3.994774322247069,5.829239314220047,0.9999982162791421
370.0,0.74,0.002670638999916264,1.0295475995053205,0.11452586899726291,986.8178789097497,593.9849268863867,1580.8028057961365,15.98926109362764,15.98926109362764,19.986576367034505,3.99463234875304,5.804430289461692,0.999998229051738
380.0,0.76,0.0025883849993988406,1.0306661118503901,0.11290926419908232,987.889962807134,584.7853180692699,1572.675280876404,15.98897762086793,15.98897762086793,19.98622202608487,3.994490708759617,5.779120029160815,0.9999982258185284
390.0,0.78,0.00340102699919953,1.0316461973068534,0.11547812412995734,988.8293815444574,580.1569506857052,1568.9863322301626,15.988694539736473,15.988694539736473,19.985868174670554,3.9943492669531078,5.753317769290014,0.9999982309562483
400.0,0.8,0.0034558669995021774,1.032550411021775,0.11410418455151074,989.6960618846515,578.3897664356696,1568.085828320321,15.98841145869288,15.98841145869288,19.98551432336606,3.9942078276947157,5.7270434168462465,0.9999982282083691
410.0,0.8200000000000001,0.0029700609993597027,1.0337206508503498,0.1162319252295506,990.8177412184234,574.2201233420002,1565.0378645604237,15.98812875180547,15.98812875180547,19.985160939756796,3.9940665778798246,5.700293048101968,0.9999982324638504
420.0,0.84,0.0029280859998834785,1.0349313349157012,0.11843101481060304,991.9781865186355,572.4294805632316,1564.4076670818672,15.987846527017174,15.987846527017174,19.98480815877143,3.9939255714289863,5.673042117084524,0.9999982368620296
430.0,0.86,0.002660601998286438,1.0362462717476877,0.11901309219960697,993.2385513402677,570.8256518227405,1564.0642031630082,15.987564674885299,15.987564674885299,19.984455843606582,3.9937847536506292,5.645287686934335,0.9999982380261844
440.0,0.88,0.0036402260011527687,1.0373277468996815,0.1191889179130814,994.2751423198324,563.1366599062954,1557.4118022261277,15.987282969104205,15.987282969104205,19.984103711380214,3.9936440114720213,5.617025348378376,0.9999982383778359
450.0,0.9,0.002632844998515793,1.0383270528388577,0.11950517031102728,995.2329749468308,559.9139662941199,1555.1469412409506,15.987001383671991,15.987001383671991,19.983751729589947,3.993503331898909,5.588254890206819,0.9999982390103406
460.0,0.92,0.0026041349992738105,1.039330263501665,0.12010886950634589,996.1945513860907,555.639928830552,1551.8344802166425,15.986720065574264,15.986720065574264,19.98340008196779,3.993362788359919,5.558979142088843,0.999998240217739
470.0,0.9400000000000001,0.0026814900011231657,1.0404691888112843,0.11932808484496704,997.2862043385283,550.1242941792608,1547.4104985177892,15.986438702834922,15.986438702834922,19.983048378543614,3.993222224992161,5.5292012098045635,0.9999982386561697
480.0,0.96,0.0026594509999995353,1.0415539684086887,0.11796208423942604,998.3259564650243,548.3941296854271,1546.7200861504514,15.986156739963041,15.986156739963041,19.98269592495376,3.9930813642916525,5.498917588776312,0.9999982359241685
490.0,0.98,0.002902968000853434,1.0427229035051877,0.11882277213966014,999.4463802428469,542.6819141651179,1542.1282944079649,15.98587488834475,15.98587488834475,19.982343610430902,3.992940561653301,5.468118505252649,0.9999982376455443
500.0,1.0,0.0027271899998595472,1.0439508121152326,0.11985389133379974,1000.6233306242259,536.6630008682787,1537.2863314925046,15.985593367153596,15.985593367153596,19.981991708941965,3.9927999265622662,5.436791466318011,0.9999982397077827
510.0,1.02,0.0031868259993643733,1.0450481745166271,0.12082013967361378,1001.675152654413,533.4456031880875,1535.1207558425003,15.985312207791486,15.985312207791486,19.981640259739326,3.9926594746963673,5.404931298245973,0.9999982416402794
520.0,1.04,0.002830174000337138,1.046337595186162,0.12042011044333084,1002.9110564150405,526.6447767364443,1529.5558331514849,15.985031122010916,15.985031122010916,19.981288902513608,3.9925190620571493,5.372539453012862,0.9999982408402209
530.0,1.06,0.0028891969996038824,1.0475235350848677,0.12096959370059283,1004.0477780154308,519.9732541111395,1524.0210321265704,15.984749988617104,15.984749988617104,19.98093748577134,3.992378628103039,5.342237085590359,0.9999982419391874
540.0,1.08,0.003068100000746199,1.048540967499158,0.12274346070427929,1005.0229906866987,513.3159521519393,1518.338942838638,15.984469331705794,15.984469331705794,19.980586664632202,3.9922384346287982,5.313393284830814,0.9999982454869214
550.0,1.1,0.003923051999663585,1.0490302117047496,0.12187927840601996,1005.4919261365156,506.22100724218797,1511.7129333787036,15.984188915525676,15.984188915525676,19.980236144407055,3.992098363862717,5.289092173719524,0.9999982437585568
560.0,1.12,0.003085055999690667,1.0494806322351953,0.12240809788932755,1005.9236548263236,499.5186231217456,1505.4422779480692,15.983908345788029,15.983908345788029,19.979885432235005,3.9919582188523783,5.2640009396910985,0.9999982448161958
570.0,1.1400000000000001,0.00410514599934686,1.0493701887709308,0.12414562156361718,1005.8178021279747,494.3051616304044,1500.1229637583792,15.983628010744143,15.983628010744143,19.979535013430148,3.9918181935288244,5.241657146071034,0.9999982482912432
580.0,1.16,0.002821292999215075,1.0491254192773407,0.12539556931353346,1005.5831964180245,490.2495381884399,1495.8327346064643,15.983348318202644,15.983348318202644,19.979185397753277,3.991678491577989,5.221372975192405,0.9999982507911386
590.0,1.18,0.0026480209999135695,1.0488582024745416,0.1244604431075593,1005.3270662481436,484.9235619152254,1490.2506281633691,15.983068563815866,15.983068563815866,19.978835704769807,3.991538761181859,5.200575887382294,0.9999982489208862
600.0,1.2,0.0026823090011021122,1.048511296302191,0.12400046293225028,1004.9945559973323,479.69372828252693,1484.6882842798593,15.982788578426572,15.982788578426572,19.978485723033188,3.99139891785442,5.1821562605560345,0.9999982480009258
610.0,1.22,0.002588909999758471,1.0487834552299824,0.1246644441575108,1005.2554220854408,472.67184481920543,1477.9272669046463,15.982508626794003,15.982508626794003,19.97813578349247,3.991259093836636,5.163348583183589,0.9999982493288884
620.0,1.24,0.00273541699971247,1.0494872288403492,0.12532517435859988,1005.9299893876873,469.9939577975474,1475.9239471852347,15.982228926206847,15.982228926206847,19.97778615775853,3.991119397651295,5.14418751270132,0.9999982506503488
630.0,1.26,0.004392684000777081,1.0502294581321874,0.12650291952276055,1006.6414184171247,464.08690138394684,1470.7283198010714,15.981949581968053,15.981949581968053,19.977436977460034,3.9909798818838875,5.128778982110735,0.999998253005839
640.0,1.28,0.0026462679998076055,1.050677742496804,0.125727475170187,1007.071094355596,459.119639676122,1466.190734031718,15.981669844558597,15.981669844558597,19.977087305698227,3.9908401721949005,5.11127069619116,0.9999982514549504
650.0,1.3,0.003738403000170365,1.0509457820531178,0.12605679684047136,1007.3280106988079,454.7374228585937,1462.0654335574015,15.981390517011153,15.981390517011153,19.976738146263916,3.990700669643969,5.0982031801543535,0.9999982521135937
660.0,1.32,0.0027351379994797753,1.0512087822005771,0.12672613837349234,1007.5800981565797,448.0288176823048,1455.6089158388845,15.98111137411246,15.98111137411246,19.97638921764054,3.9905612617466666,5.082347176472152,0.9999982534522768
670.0,1.34,0.003443544999754522,1.0514856838905933,0.12680690255127228,1007.8455078249493,446.04024698910007,1453.8857548140495,15.980832325809521,15.980832325809521,19.97604040726186,3.9904219035256023,5.063456222769812,0.9999982536138051
680.0,1.36,0.002672141999937594,1.0518359256393135,0.12960809730131856,1008.1812246650189,441.63115192819794,1449.8123765932169,15.9805534835576,15.9805534835576,19.975691854446957,3.990282650638202,5.049095881375562,0.9999982592161946
690.0,1.3800000000000001,0.0027776669994636904,1.052021823052182,0.12972771087238222,1008.3594071973537,434.6791514147708,1443.0385586121245,15.980275314334651,15.980275314334651,19.975344142918274,3.99014373628021,5.040314822620119,0.9999982594554218
700.0,1.4000000000000001,0.0043698539993783925,1.052505880886698,0.12909498690483973,1008.8233724633885,427.6844800279588,1436.5078524913474,15.979996987505757,15.979996987505757,19.974996234382157,3.9900047456358294,5.0276902560013905,0.9999982581899738
710.0,1.42,0.0029583569994429126,1.0531409768541116,0.1289919484675157,1009.4321094114973,422.3400506952575,1431.7721601067549,15.979718713663654,15.979718713663654,19.97464839207953,3.9898657838720686,5.009876864838348,0.999998257983897
720.0,1.44,0.002895844998420216,1.0537518769492038,0.1292559158052141,1010.0176561790262,418.87064358254713,1428.8882997615733,15.979440415577892,15.979440415577892,19.974300519472333,3.98972681242194,5.004820474778253,0.9999982585118317
730.0,1.46,0.0032053940012701787,1.0536563032673858,0.13371705938465958,1009.9260671458017,410.1843259524278,1420.1103930982295,15.979163203026392,15.979163203026392,19.973954003782957,3.9895883854523855,4.9960936751932845,0.9999982674341188
740.0,1.48,0.0026653610002540518,1.0533085768592352,0.13234331161060156,1009.5927669907891,406.77991995585853,1416.3726869466477,15.97888589099293,15.97888589099293,19.97360736374113,3.9894499112089514,4.993529364893696,0.9999982646866232
750.0,1.5,0.002736145999733708,1.0526262580906862,0.13296984293055158,1008.9387692494629,400.53462847820145,1409.4733977276644,15.978608605194022,15.978608605194022,19.973260756492497,3.9893114524684448,4.988880345329284,0.9999982659396859
760.0,1.52,0.0027772630000981735,1.0517034650956087,0.1279480549873347,1008.0542549822471,393.60342191166205,1401.6576768939092,15.978330359000662,15.978330359000662,19.97291294875079,3.9891725165837846,4.9936500686457785,0.99999825589611
770.0,1.54,0.002525283000068157,1.050934642170469,0.12795735904109168,1007.3173408165057,390.05294613464037,1397.3702869511462,15.978051689130044,15.978051689130044,19.972564611412515,3.9890333715704918,5.003976838968647,0.9999982559147181
780.0,1.56,0.002851507000741549,1.0496235025577194,0.1286055739236082,1006.0606204899391,387.7208614696848,1393.7814819596238,15.977773130957095,15.977773130957095,19.97221641369633,3.9888942847552262,5.01021387698477,0.9999982572111479
790.0,1.58,0.0027526009998837253,1.0482965038642413,0.12810076063466108,1004.7886946467149,383.30929951416897,1388.097994160884,15.977494637007663,15.977494637007663,19.97186829625954,3.9887552324313846,5.012676762689929,0.9999982562015213
800.0,1.6,0.0025757330004125834,1.0477761747519236,0.12778164927104255,1004.2899596500215,377.6641309139581,1381.9540905639797,15.97721594416246,15.97721594416246,19.971519930203044,3.988616083224986,5.033579853300365,0.9999982555632986
810.0,1.62,0.002632310000990401,1.0474342831239232,0.1282148080893763,1003.9622594074001,374.15014189572383,1378.112401303124,15.976937269541171,15.976937269541171,19.971171586926438,3.9884769455445888,5.039518847741814,0.9999982564296162
