step,time,step_time,temperature,pressure,kinetic,potential,total_energy,box_x,box_y,box_z,area_per_lipid,thickness_proxy,barostat_scale
1.0,0.002,0.061974443999133655,0.9752724653866469,0.13875547355714943,934.7954377149642,409.8086981775959,1344.6041358925602,15.999972440175155,15.999972440175155,19.999965550218942,3.999986220099445,6.3989393980739155,0.9999982775109472
10.0,0.02,0.05528949899962754,0.9769448617545692,0.13426196877366306,936.3984072804783,351.14783369201626,1287.5462409724946,15.999723898127437,15.999723898127437,19.999654872659296,3.9998619502548474,6.393212084500962,0.9999982685239376
20.0,0.04,0.05430337799953122,0.9789632463876308,0.13808918683389335,938.3330366166166,388.1564797589485,1326.489516375565,15.999448219281991,15.999448219281991,19.999310274102488,3.9997241143982136,6.388315420993152,0.9999982761783737
30.0,0.06,0.06280104500001471,0.9812334506511682,0.13827216438638246,940.5090205895532,392.95932891304824,1333.4683495026015,15.999172515107963,15.999172515107963,19.99896564388495,3.9995862682529073,6.384957847060086,0.9999982765443288
40.0,0.08,0.057886016000338714,0.9837505821336251,0.13841323240198833,942.9216833312992,396.5357086862828,1339.457392017582,15.998896730255439,15.998896730255439,19.998620912819295,3.999448384146534,6.383133644174565,0.9999982768264648
50.0,0.1,0.059021312999902875,0.9865078331095724,0.14091310044999528,945.5645087388223,406.2249257100517,1351.789434448874,15.998621344813563,15.998621344813563,19.99827668101695,3.9993107021050647,6.382839397403707,0.9999982818262009
60.0,0.12,0.05310479800027679,0.9893874238685099,0.13846398893250733,948.3245777064244,379.34358955017933,1327.6681672566037,15.998346114323429,15.998346114323429,19.997932642904278,3.999173099901368,6.384069409631456,0.9999982769279778
70.0,0.14,0.06556813200040779,0.9924796171385561,0.14032336215414112,951.2884418170726,396.8685734534035,1348.157015270476,15.998070953883476,15.998070953883476,19.99758869235434,3.9990355350857834,6.386839314372796,0.9999982806467244
80.0,0.16,0.07900923200031684,0.9956134286985019,0.1407440373362854,954.2921914740365,394.8995878369524,1349.1917793109887,15.997795979682957,15.997795979682957,19.997244974603696,3.998898065743128,6.39114849302538,0.9999982814880747
90.0,0.18,0.11435813699972641,0.9991914815543348,0.13904725254179856,957.7217368486685,382.39036532345057,1340.112102172119,15.997520955004473,15.997520955004473,19.996901193755587,3.998760573528238,6.396988814719901,0.999998278094505
100.0,0.2,0.0625826479990792,1.0036859516557017,0.14443507949033774,962.0296923381106,441.06583193820734,1403.095524276318,15.997246436399998,15.997246436399998,19.996558045499995,3.9986233366705064,6.404370467945585,0.999998288870159
110.0,0.22,0.07369540900072025,1.008075675991296,0.14035013921188946,966.2372129263463,373.6770389620332,1339.9142518883796,15.996972050232962,15.996972050232962,19.996215062791197,3.9984861683739776,6.413285634451911,0.9999982807002784
120.0,0.24,0.0809096410011989,1.0083216740385919,0.14344723986829308,966.4730132169732,420.33232610001465,1386.8053393169878,15.996697751437555,15.996697751437555,19.995872189296943,3.9983490461069895,6.423712864699171,0.9999982868944798
130.0,0.26,0.07471064700075658,1.008696294428264,0.14230146102997285,966.8320811991023,399.49752648684256,1366.329607685945,15.996423434075012,15.996423434075012,19.995529292593766,3.9982119169097534,6.435657594247804,0.9999982846029221
140.0,0.28,0.05734787300025346,1.010046523452066,0.1435736176788248,968.1262762047467,416.17142146865496,1384.2976976734017,15.99614927603695,15.99614927603695,19.995186595046185,3.998074869707148,6.449111528013996,0.9999982871472354
150.0,0.3,0.06120079099855502,1.0123901190988966,0.14426945022170493,970.3726076378255,423.0542558322612,1393.4268634700866,15.995875249476185,15.995875249476185,19.994844061845228,3.9979378905750753,6.464096625929127,0.9999982885389005
160.0,0.32,0.06460751099984918,1.0150166369458846,0.1451968616327183,972.8901199859883,430.61949431200173,1403.50961429799,15.995601247820982,15.995601247820982,19.994501559776218,3.99780092623894,6.480592840604977,0.9999982903937232
170.0,0.34,0.061336444998232764,1.017963915689207,0.143507432321113,975.715070408692,403.05323904615227,1378.7683094548443,15.995327554577697,15.995327554577697,19.99415944322211,3.9976641184098836,6.498612714982848,0.9999982870148646
180.0,0.36,0.054891842999495566,1.0212815271905846,0.14387106497618626,978.8949915622591,409.59272448667326,1388.4877160489323,15.99505399627757,15.99505399627757,19.993817495346942,3.9975273803724223,6.518142433165374,0.99999828774213
190.0,0.38,0.06640310100010538,1.0249586679121145,0.14532786332716044,982.4195245987735,427.4841802647071,1409.9037048634805,15.994780702919003,15.994780702919003,19.99347587864874,3.9973907771010957,6.539156250797615,0.9999982906557267
200.0,0.4,0.05284087100153556,1.028646485123128,0.14561949462075702,985.9542864613954,419.15549766928183,1405.1097841306773,15.994507448058098,15.994507448058098,19.993134310072612,3.9972541954060308,6.561656373821366,0.9999982912389892
210.0,0.42,0.05676363800012041,1.0324062421527997,0.14863176947270623,989.5580131818328,461.0036286569332,1450.561641838766,15.994234463854959,15.994234463854959,19.992793079818686,3.9971177513244642,6.585641266993038,0.999998297263539
220.0,0.44,0.0682318920007674,1.035701925473242,0.14705740542073767,992.7169086352931,431.4425867801938,1424.1594954154868,15.99396148260149,15.99396148260149,19.992451853251847,3.9969813110459382,6.611097285637202,0.9999982941148109
230.0,0.46,0.059082298999783234,1.0402126356619965,0.14565430545409497,997.0404040045851,408.7410643850776,1405.7814683896627,15.993688865732151,15.993688865732151,19.992111082165177,3.9968450552163217,6.638039287532569,0.999998291308611
240.0,0.48,0.06649740900138568,1.0752405985383056,0.1540410826050256,1030.614626259581,469.8729963895637,1500.4876226491447,15.993416835216617,15.993416835216617,19.991771044020766,3.9967090947654738,6.666445057199297,0.9999983080821652
250.0,0.5,0.08152347499890311,1.334690828716749,0.1833715669630346,1279.296980473612,427.8180395045039,1707.115019978116,15.993155693462308,15.993155693462308,19.99144461682788,3.9965785786769663,6.6961776328049805,0.9999983667431339
260.0,0.52,0.055663543000264326,1.309686362123341,0.1821801710287429,1255.330271549195,445.8057113247394,1701.1359828739344,15.99289452898584,15.99289452898584,19.9911181612323,3.996448053363519,6.727063947026961,0.9999983643603421
270.0,0.54,0.06807597499937401,1.287992627091413,0.1783200153567102,1234.5368754801534,434.85839962970635,1669.3952751098598,15.992632535517169,15.992632535517169,19.990790669396457,3.9963171158762862,6.759091849886971,0.9999983566400307
280.0,0.56,0.1274240330003522,1.2683944296823777,0.17746597493886335,1215.7520608509442,457.80336379234575,1673.5554246432898,15.992369792844826,15.992369792844826,19.990462241056033,3.9961858061108697,6.792268660533013,0.9999983549319499
290.0,0.58,0.11734601199896133,1.2510465861234654,0.17531104855365426,1199.124197171648,459.75509079009834,1658.8792879617463,15.992106293121095,15.992106293121095,19.99013286640137,3.996054120163802,6.826606851507602,0.9999983506220971
300.0,0.6,0.0579284639989055,1.2374921014888092,0.17588519410309822,1186.1322692306974,495.42014462700286,1681.5524138577002,15.99184249786413,15.99184249786413,19.98980312233017,3.9959222886952075,6.862123697898415,0.9999983517703882
310.0,0.62,0.06926189899968449,1.2315371956137515,0.17344065395464417,1180.4244992224951,478.6628124048268,1659.087311627322,15.991578217949153,15.991578217949153,19.989472772436446,3.995790217199778,6.898831730793195,0.999998346881308
320.0,0.64,0.06052141899999697,1.2115929371877145,0.17266004047873007,1161.3079870988734,503.4675349904221,1664.7755220892955,15.991313560089772,15.991313560089772,19.989141950112213,3.9956579590173598,6.936789045715072,0.9999983453200809
330.0,0.66,0.06931632699888723,1.1951624843363318,0.16807115440228654,1145.559429131126,469.43872396926577,1614.9981531003918,15.99104804151102,15.99104804151102,19.988810051888773,3.995525272904897,6.976061265202452,0.9999983361423088
340.0,0.68,0.05784431699976267,1.1828241500111405,0.16950166272833198,1133.733181522206,513.1942487637639,1646.9274302859699,15.990782266751136,15.990782266751136,19.988477833438928,3.9953924609787905,7.0165781600354755,0.9999983390033255
350.0,0.7000000000000001,0.07555024599969329,1.1725479679396267,0.16641208774335683,1123.8834798380262,488.8484210457382,1612.7319008837644,15.990515826354255,15.990515826354255,19.988144782942825,3.995259318638842,7.058324338681857,0.9999983328241755
360.0,0.72,0.0793517639995116,1.163423656251432,0.16796489514816484,1115.137863172338,532.6367872665083,1647.7746504388465,15.990249111345422,15.990249111345422,19.987811389181783,3.995126041295048,7.1012901439948966,0.9999983359297903
370.0,0.74,0.07421074299963948,1.1557679639919574,0.16443669621338047,1107.799890929263,500.31243995574465,1608.1123308850076,15.989981973944133,15.989981973944133,19.98747746743017,3.994992555110286,7.1498504032695935,0.9999983288733925
380.0,0.76,0.05376226999942446,1.1495955680095469,0.16557942956258795,1101.8836741903287,524.4987844010674,1626.3824585913962,15.9897145391868,15.9897145391868,19.987143173983505,3.994858922573152,7.201555498139294,0.9999983311588592
390.0,0.78,0.08481352600028913,1.1445194421714753,0.1629478109803311,1097.0182122661517,501.54554714164976,1598.5637594078016,15.989447037081948,15.989447037081948,19.986808796352445,3.994725258619511,7.254365300162937,0.999998325895622
400.0,0.8,0.08267101499950513,1.1406758436311695,0.16298002379850104,1093.3341355412358,519.8363818405146,1613.1705173817504,15.989179259012827,15.989179259012827,19.986474073766043,3.9945914590132183,7.308258089094308,0.9999983259600476
410.0,0.8200000000000001,0.07055788599973312,1.1377248784854221,0.165200021947016,1090.5056546027715,545.581696885459,1636.0873514882305,15.98891163725577,15.98891163725577,19.98613954656972,3.9944577397495777,7.363236388286423,0.9999983304000439
420.0,0.84,0.07946119400003226,1.1353604549826077,0.1637224535339935,1088.2393558111428,540.3802158108363,1628.619571621979,15.988643978948428,15.988643978948428,19.985804973685543,3.9943240044619346,7.419283913546031,0.999998327444907
430.0,0.86,0.06859873399844219,1.133216843865889,0.16318984959079796,1086.184709114768,535.2623474920748,1621.447056606843,15.988376139017895,15.988376139017895,19.985470173772377,3.9941901806674496,7.476401512003515,0.9999983263796992
440.0,0.88,0.06668784500106995,1.1315125362466267,0.16404338415220032,1084.5511394324956,546.3300787863138,1630.8812182188094,15.988108424472696,15.988108424472696,19.985135530590878,3.994056421760856,7.534580403899935,0.9999983280867683
450.0,0.9,0.05877244400107884,1.1304556160992991,0.16252446680917068,1083.5380782755392,538.2838120304705,1621.8218903060097,15.98784061745775,15.98784061745775,19.98480077182219,3.9939226188942465,7.59379307729701,0.9999983250489336
460.0,0.92,0.053881507001278806,1.1306559753051948,0.16444602356083896,1083.7301302608705,567.3829000600451,1651.1130303209156,15.98757306874749,15.98757306874749,19.984466335934364,3.9937889473209385,7.654033149726496,0.9999983288920471
470.0,0.9400000000000001,0.06196889300008479,1.1320532713020581,0.1646671220103514,1085.0694349572414,573.1542367805521,1658.2236717377934,15.987305720796668,15.987305720796668,19.984132150995837,3.9936553782846542,7.715271451518001,0.999998329334244
480.0,0.96,0.06497195299925806,1.1345540413697437,0.16294111298543543,1087.4664075500727,539.3547769706255,1626.8211845206984,15.987038277610948,15.987038277610948,19.983797847013687,3.9935217639030878,7.777507250850839,0.9999983258822259
490.0,0.98,0.0738850919988181,1.1379134605389758,0.1659340818488625,1090.686413100045,584.7344459036022,1675.4208590036474,15.986771397441128,15.986771397441128,19.983464246801415,3.9933884330319023,7.840756602017461,0.9999983318681637
500.0,1.0,0.05711230000088108,1.1508746131542507,0.1662777581714326,1103.1096379509866,585.2761939995494,1688.385831950536,15.986504585921653,15.986504585921653,19.983130732402067,3.993255138682719,7.904985180258871,0.9999983325555163
510.0,1.02,0.060914878000403405,1.1474210081549556,0.1668872663664308,1099.7993712799223,582.2272534083629,1682.0266246882852,15.986239101076855,15.986239101076855,19.982798876346074,3.993122509324977,7.970127380786995,0.9999983337745327
520.0,1.04,0.0616083829991112,1.1509966766754425,0.16958893425222785,1103.2266500578094,632.602443827367,1735.8290938851765,15.985973095671016,15.985973095671016,19.982466369588767,3.9929896221174617,8.036148368110112,0.9999983391778685
530.0,1.06,0.06289273700167541,1.1561608834763941,0.1711283248965103,1108.1765326584318,637.0359384724808,1745.2124711309125,15.985707961923541,15.985707961923541,19.98213495240442,3.9928571725610267,8.103020299989335,0.9999983422566497
540.0,1.08,0.052038449999599834,1.15810569738339,0.16875274316171776,1110.0406200598934,608.1036873898593,1718.1443074497527,15.98544252902474,15.98544252902474,19.98180316128092,3.9927245757617635,8.170706572342072,0.9999983375054863
550.0,1.1,0.06242583099992771,1.139105411025825,0.16764671876708673,1091.828901309702,627.5563051209282,1719.3852064306302,15.985176861725552,15.985176861725552,19.98147107715693,3.9925918640725935,8.239188132847156,0.9999983352934375
560.0,1.12,0.06458987699988938,1.1332444434707485,0.16691922430783324,1086.2111794510583,629.7429693285555,1715.954148779614,15.984910422408833,15.984910422408833,19.981138028011028,3.992458768944289,8.301772560808786,0.9999983338384486
570.0,1.1400000000000001,0.09144344000014826,1.1323125850036901,0.16612744730685042,1085.3179926494408,634.6553925638096,1719.9733852132504,15.984643930168717,15.984643930168717,19.98080491271088,3.992325649598119,8.36625008478835,0.9999983322548947
580.0,1.16,0.05944923499919241,1.1346206251693367,0.1652811103205099,1087.5302380875848,617.1836062068169,1704.7138442944017,15.984377259639087,15.984377259639087,19.98047157454884,3.9921924434135496,8.43160583657789,0.9999983305622206
590.0,1.18,0.06500330999915604,1.1397448089075946,0.16786677209847203,1092.4417631004894,644.6225117758986,1737.064274876388,15.984111145242775,15.984111145242775,19.980138931553448,3.9920595172417856,8.497821953944381,0.9999983357335442
600.0,1.2,0.06167337199985923,1.1464993677856374,0.16990101892490256,1098.9159951772551,665.3915938717585,1764.3075890490136,15.983845410662427,15.983845410662427,19.979806763328018,3.9919267829992866,8.564855980576036,0.9999983398020379
610.0,1.22,0.0709552000007534,1.1561306100866768,0.17077861261581484,1108.1475141604597,672.2826746719237,1780.4301888323835,15.983580320289398,15.983580320289398,19.979475400361732,3.9917943727366025,8.632677060558938,0.9999983415572252
620.0,1.24,0.05991701300081331,1.1835025334278935,0.17755490951611752,1134.3834464090432,725.8425560595144,1860.2260024685577,15.983316670084179,15.983316670084179,19.979145837605206,3.991662684002981,8.701220729055075,0.999998355109819
630.0,1.26,0.0925708359991404,1.1607265669129614,0.17414926275624257,1112.5527391669686,719.8919395411897,1832.4446787081583,15.98305289194498,15.98305289194498,19.978816114931202,3.9915309335423563,8.770413341116054,0.9999983482985255
640.0,1.28,0.09032901399950788,1.1574251646526201,0.17331280074858174,1109.3883518418406,710.9058682161669,1820.2942200580076,15.982788354088871,15.982788354088871,19.97848544261106,3.991398805806232,8.840281040866742,0.9999983466256015
650.0,1.3,0.059489725999810616,1.2177066360378523,0.18097131819585166,1167.1679868566553,721.7377425105009,1888.9057293671563,15.982525294081444,15.982525294081444,19.978156617601776,3.9912674183742682,8.910788982523908,0.9999983619426364
660.0,1.32,0.08018439700026647,1.202843091109091,0.17785089285548905,1152.9213113258054,709.2047816475526,1862.126092973358,15.982262677502447,15.982262677502447,19.977828346878027,3.991136254573245,8.981810844828555,0.9999983557017857
670.0,1.34,0.057971140999143245,1.2025743014374042,0.17995161296065168,1152.6636869584609,749.877971525197,1902.541658483658,15.98200024447112,15.98200024447112,19.97750030558887,3.991005184598046,9.053315060202674,0.9999983599032259
680.0,1.36,0.056873280000218074,1.2070930756926628,0.1796528906232901,1156.9949164923328,738.998489837496,1895.9934063298288,15.981737987354018,15.981737987354018,19.977172484192486,3.990874204631788,9.125255021778017,0.9999983593057813
690.0,1.3800000000000001,0.09530699700007972,1.2169482107470595,0.18107176218546114,1166.4410390656506,743.3957621927772,1909.8368012584278,15.981476475638406,15.981476475638406,19.976845594547967,3.990743599084121,9.197580823373801,0.9999983621435243
700.0,1.4000000000000001,0.06946554600108357,1.2289294584246162,0.1877117138520879,1177.9250586317598,822.3055016529105,2000.2305602846704,15.981215527288539,15.981215527288539,19.97651940911063,3.9906132770257545,9.270245899037654,0.9999983754234277
710.0,1.42,0.09106727300058992,1.2117718136187716,0.18571363316821318,1161.4795002366614,825.3810427262367,1986.860542962898,15.980954838782926,15.980954838782926,19.976193548478616,3.9904830868628034,9.343204818475442,0.9999983714272663
720.0,1.44,0.058958126999641536,1.2936334723373537,0.19216743053005889,1239.9436765580983,784.9570936624323,2024.9007702205306,15.980697157822018,15.980697157822018,19.975871447277473,3.9903544007815737,9.416304522157375,0.9999983843348611
730.0,1.46,0.0738781519994518,1.282263460253918,0.191245515072589,1229.0455506593282,786.7063123670047,2015.751863026333,15.980438912414517,15.980438912414517,19.9755486405181,3.9902254348970634,9.489369030261425,0.9999983824910301
740.0,1.48,0.07643724899935478,1.2759835452914454,0.19042718891356275,1223.0262676369775,785.4368849192784,2008.4631525562559,15.98018044598204,15.98018044598204,19.9752255574775,3.9900963607210427,9.562329770460408,0.9999983808543779
750.0,1.5,0.07000007500028005,1.272923024271669,0.19210853222183483,1220.0927759446645,826.5255301322545,2046.618306076919,15.979922048212293,15.979922048212293,19.974902560265324,3.989967322920959,9.635104833916355,0.9999983842170644
760.0,1.52,0.08475600800011307,1.2800822142330965,0.19423778961942603,1226.954847797463,841.5480981626113,2068.502945960074,15.979663920477932,15.979663920477932,19.974579900597373,3.9898384220535026,9.707631289893978,0.9999983884755792
770.0,1.54,0.056375296000624076,1.2827422132073403,0.19673763674808417,1229.5044608910803,876.9882215329037,2106.4926824239838,15.979406882262687,15.979406882262687,19.974258602828314,3.989710067326627,9.779812795333548,0.9999983934752735
780.0,1.56,0.13631896500010043,1.2528211661006545,0.19089552221826317,1200.8252013258543,859.4487589861758,2060.27396031203,15.979149145481955,15.979149145481955,19.973936431852405,3.9895813658368233,9.85156930859979,0.9999983817910444
790.0,1.58,0.05989054000019678,1.2505645357089463,0.1941735856121782,1198.6622438128927,905.0493340928047,2103.7115779056976,15.978890617868265,15.978890617868265,19.97361327233529,3.989452271528101,9.922838390387794,0.9999983883471713
800.0,1.6,0.08393156199963414,1.3517464391137632,0.20785531350774222,1295.6448565280311,927.2692638076986,2222.91412033573,15.978635388910396,15.978635388910396,19.973294236137956,3.9893248264334327,9.993479721492967,0.999998415710627
810.0,1.62,0.07417542599978333,1.293441534666017,0.1989854476534503,1239.7597387054632,897.5548481294103,2137.3145868348734,15.978380422193469,15.978380422193469,19.972975527741802,3.989197514317743,10.063220720485665,0.9999983979708953
820.0,1.6400000000000001,0.06918674200096575,1.2756250592281102,0.19560296387178105,1222.6826851713374,886.4882739699326,2109.17095914127,15.97812363049486,15.97812363049486,19.972654538118547,3.989069292990285,10.132027240650785,0.9999983912059277
