step,time,step_time,temperature,pressure,kinetic,potential,total_energy,box_x,box_y,box_z,area_per_lipid,thickness_proxy,barostat_scale
1.0,0.002,0.0030598900011682417,1.0526132763610379,0.04047101944351496,1008.9259530061431,692.4470248673209,1701.3729778734642,15.999969295072622,15.999969295072622,19.99996161884078,3.9999846475510425,6.389936683175266,0.9999980809420389
10.0,0.02,0.0033716279995132936,1.0491741958637464,0.06310184185558314,1005.6296980343606,686.504044127761,1692.1337421621215,15.999694742724616,15.999694742724616,19.999618428405768,3.9998473728182766,6.389636329287742,0.9999981262036837
20.0,0.04,0.0028136159999121446,1.0454075110484433,0.06467269523807907,1002.0193504651801,685.6909122233021,1687.710262688482,15.999394623662003,15.999394623662003,19.9992432795775,3.9996973175572594,6.388892808667887,0.9999981293453905
30.0,0.06,0.003505200998915825,1.0417973076619973,0.08305281029215669,998.5590568802654,679.9958050430238,1678.554861923289,15.999100357397369,15.999100357397369,19.998875446746712,3.9995501913448845,6.387711881023693,0.9999981661056205
40.0,0.08,0.0028332759993645595,1.0387417246671506,0.07354578713302298,995.6302534598381,680.0568859718381,1675.6871394316763,15.99880521647923,15.99880521647923,19.99850652059904,3.9994026305444224,6.386096954302351,0.9999981470915743
50.0,0.1,0.0028780789998563705,1.036558705901005,0.07749735206705231,993.5378534307645,679.4953147512086,1673.033168181973,15.998509096911663,15.998509096911663,19.99813637113958,3.9992545831869566,6.384052051766297,0.9999981549947041
60.0,0.12,0.002777734998744563,1.0349872841782184,0.0851805374515529,992.0316817552996,678.0795006663395,1670.1111824216391,15.998214811890376,15.998214811890376,19.997768514862976,3.999107455740447,6.381576163740436,0.9999981703610749
70.0,0.14,0.0035072889986622613,1.033650035312181,0.08523310979853814,990.7499336158337,676.367613498451,1667.1175471142847,15.997921992855003,15.997921992855003,19.997402491068758,3.998961063898028,6.378663307902151,0.9999981704662196
80.0,0.16,0.0031193939994409448,1.032497641184536,0.08689181899932738,989.6453744523252,675.7664394076695,1665.4118138599947,15.997629314766247,15.997629314766247,19.997036643457808,3.998814745197943,6.375311964321733,0.999998173783638
90.0,0.18,0.004582229999869014,1.0313934946597572,0.09335895175280191,988.5870794471218,671.7595196042276,1660.3465990513496,15.99733930430799,15.99733930430799,19.996674130384985,3.998669762768082,6.371517434378496,0.9999981867179035
100.0,0.2,0.0031579710012010764,1.030493426652168,0.09592878426272895,987.7243775437,670.614625874626,1658.339003418326,15.997049852370425,15.997049852370425,19.99631231546303,3.998525062175385,6.36727607308775,0.9999981918575686
110.0,0.22,0.002875145000871271,1.029406012103715,0.10303261810754806,986.6821225051641,666.6123819149468,1653.294504420111,15.996762235068001,15.996762235068001,19.995952793835002,3.9983812813327777,6.3625798323754275,0.9999982060652363
120.0,0.24,0.0029606930002046283,1.0281893864316791,0.1031049255342297,985.5159912674976,666.9244779303888,1652.4404691978864,15.996475339593916,15.996475339593916,19.9955941744924,3.998237863909942,6.3574269647282655,0.999998206209851
130.0,0.26,0.0035376730011194013,1.0271902148579444,0.10448058285180904,984.558294167586,665.3907509096721,1649.9490450772582,15.996188693922015,15.996188693922015,19.995235867402517,3.9980945739306017,6.351819298800983,0.9999982089611658
140.0,0.28,0.003351348001160659,1.0262749302140328,0.1056197037390512,983.681001461086,662.5031609853451,1646.184162446431,15.995902538479669,15.995902538479669,19.994878173099586,3.9979515315709424,6.345750534000674,0.9999982112394075
150.0,0.3,0.003299581001556362,1.0255195531950105,0.10526323462237437,982.9569737770016,662.9385374145229,1645.8955111915245,15.995616350187722,15.995616350187722,19.994520437734657,3.9978084753498875,6.339226830610071,0.9999982105264692
160.0,0.32,0.003201957999408478,1.0246678171423818,0.10366673975029086,982.1405814204268,662.0560641880248,1644.1966456084515,15.995329743237157,15.995329743237157,19.994162179046455,3.9976652124201135,6.332259299575597,0.9999982073334795
170.0,0.34,0.0027483890007715672,1.0239468785438557,0.10305822484076534,981.4495618623615,659.9336521037617,1641.383213966123,15.99504311436532,15.99504311436532,19.993803892956652,3.997521941100085,6.324839804931141,0.9999982061164496
180.0,0.36,0.002766452000287245,1.0233561957605586,0.10284834272609542,980.8833936223728,658.2427867512675,1639.1261803736402,15.994756066841543,15.994756066841543,19.993445083551936,3.997378463090068,6.316956281634722,0.9999982056966854
190.0,0.38,0.00273641399871849,1.0228004888733009,0.10516753580114177,980.3507595768951,657.8567829221046,1638.2075424989998,15.994469483500286,15.994469483500286,19.993086854375367,3.997235219665967,6.308616741242398,0.9999982103350716
200.0,0.4,0.002765967001323588,1.022749138987389,0.1066810311761082,980.3015468221571,658.2317227487417,1638.533269570899,15.994183337339342,15.994183337339342,19.992729171674185,3.9970921973191165,6.299823220906082,0.9999982133620624
210.0,0.42,0.003247832999477396,1.0227801324424173,0.10573569479832175,980.3312502356719,652.919125351225,1633.250375586897,15.993897409597938,15.993897409597938,19.992371761997425,3.9969492866991194,6.290569006175549,0.9999982114713896
220.0,0.44,0.004037311000502086,1.0226212737912168,0.10850009795040562,980.1789956016189,652.1509940832068,1632.3299896848257,15.993611909213776,15.993611909213776,19.99201488651722,3.9968065922272613,6.280855575526177,0.9999982170001959
230.0,0.46,0.002958180000860011,1.02273822607223,0.10734141930241645,980.2910894198485,646.6872680527721,1626.9783574726207,15.99332658920416,15.99332658920416,19.991658236505206,3.9966639904522623,6.2706853248105325,0.9999982146828386
240.0,0.48,0.0034253029989486095,1.0229704168759015,0.10593371480808607,980.5136379894027,646.5472479204592,1627.060885909862,15.993040783209223,15.993040783209223,19.991300979011534,3.996521148334273,6.2600431948124005,0.9999982118674297
250.0,0.5,0.0028918799998791656,1.023126601542995,0.1064683506631485,980.6633425546295,644.3553026908411,1625.0186452454705,15.992754915726312,15.992754915726312,19.990943644657897,3.996378278038877,6.248928126625175,0.9999982129367013
260.0,0.52,0.0027740810000977945,1.0231820168201622,0.10761768250321543,980.7164624166355,642.775663866977,1623.4921262836124,15.992469420402482,15.992469420402482,19.990586775503107,3.9962355962891953,6.23734621029695,0.999998215235365
270.0,0.54,0.0029712180003116373,1.0233391854618834,0.1088465915654936,980.8671128435842,641.3429910761272,1622.2101039197114,15.992184135993273,15.992184135993273,19.990230169991605,3.9960930224924205,6.2253017143575615,0.9999982176931831
280.0,0.56,0.0032703630004107254,1.023498649930845,0.10977015479853895,981.0199626163876,640.7190568164236,1621.7390194328113,15.991899463488869,15.991899463488869,19.989874329361097,3.995950757036493,6.212796179761996,0.9999982195403097
290.0,0.58,0.002868191999368719,1.023487982752687,0.10917808991826564,981.0097358392418,639.0723936061676,1620.0821294454095,15.991614635912692,15.991614635912692,19.98951829489088,3.995808416617766,6.199830800870234,0.9999982183561799
300.0,0.6,0.0029080920012347633,1.0235091648069357,0.10999647047242113,981.030041977323,634.7456271117863,1615.7756690891092,15.991329884866252,15.991329884866252,19.98916235608283,3.9956661169783825,6.1864065124144325,0.9999982199929409
310.0,0.62,0.002833855000062613,1.0236558281864938,0.11144567904397372,981.1706240138681,630.1699730071258,1611.3405970209938,15.991045683594797,15.991045683594797,19.98880710449351,3.9955240946064965,6.172522518702005,0.9999982228913581
320.0,0.64,0.0028698690002784133,1.024091931156551,0.11176743919522103,981.5886284883366,628.4447089105115,1610.033337398848,15.990761612832362,15.990761612832362,19.988452016040462,3.9953821399755163,6.158160972314372,0.9999982235348784
330.0,0.66,0.002832682001098874,1.0247204201289712,0.1131086227337642,982.1910382972972,627.5099275648731,1609.7009658621703,15.990477834611585,15.990477834611585,19.988097293264495,3.995240334050069,6.143310510375209,0.9999982262172454
340.0,0.68,0.003102355000009993,1.0254568044210899,0.11281814646819947,982.896858995302,622.6423167526095,1605.5391757479115,15.990194137216955,15.990194137216955,19.9877426715212,3.9950985710294917,6.12797412999237,0.9999982256362929
350.0,0.7000000000000001,0.003286662000391516,1.0264546721258234,0.11294422893081706,983.8533122922775,618.980004644503,1602.8333169367804,15.98991048004727,15.98991048004727,19.987388100059096,3.994956830623836,6.112148336755543,0.9999982258884579
360.0,0.72,0.0033984849997068522,1.0275284440102381,0.11322277835186564,984.8825200889802,616.8333627852332,1601.7158828742135,15.989626845774726,15.989626845774726,19.987033557218414,3.994815104173747,6.095823393646377,0.9999982264455567
370.0,0.74,0.0033530479995533824,1.0287226315052311,0.11548889476488218,986.0271536806367,612.3864861118129,1598.4136397924497,15.989343804995075,15.989343804995075,19.98667975624384,3.9946736767864746,6.0790040094284485,0.9999982309777895
380.0,0.76,0.003075501999774133,1.0296215769078523,0.11642755673115257,986.8887935059605,606.0014953247671,1592.8902888307275,15.989061132036833,15.989061132036833,19.986326415046037,3.9945324356876712,6.061686816728897,0.9999982328551135
390.0,0.78,0.005491513999004383,1.030399993119815,0.11639436640184937,987.6349026770336,602.5517330658375,1590.1866357428712,15.988778575442606,15.988778575442606,19.98597321930325,3.99439125522707,6.043861853587744,0.9999982327887328
400.0,0.8,0.0030449119985860307,1.0311974704181817,0.1184882878861039,988.399290244408,597.824521871986,1586.2238121163941,15.98849636484181,15.98849636484181,19.98562045605225,3.9942502501337462,6.025533639266541,0.9999982369765757
410.0,0.8200000000000001,0.0035299540013511432,1.0318109187182902,0.11848809059432865,988.9872783660023,594.0082908960262,1582.9955692620285,15.98821450381181,15.98821450381181,19.985268129764755,3.994109422185911,6.0097563830022045,0.9999982369761812
420.0,0.84,0.0036512980004772544,1.032319701300771,0.11837722642373659,989.4749443129808,592.2837484173446,1581.7586927303255,15.987932645430357,15.987932645430357,19.98491580678794,3.993968598044027,5.993317032672563,0.9999982367544529
430.0,0.86,0.003427867999562295,1.0328505045640053,0.11902899593124341,989.9837200275716,590.0842341931987,1580.0679542207704,15.987650863562259,15.987650863562259,19.984563579452814,3.9938278146119224,5.976397285868549,0.9999982380579918
440.0,0.88,0.002988776999700349,1.0335302813217453,0.1182477127128167,990.6352806579519,589.3574554423769,1579.9927361003288,15.987368872836035,15.987368872836035,19.984211091045037,3.993686929314477,5.958994521640914,0.9999982364954254
450.0,0.9,0.002834488001099089,1.0343782254649403,0.11944095002559116,991.4480369847541,583.1525669398428,1574.600603924597,15.9870872003543,15.9870872003543,19.98385900044287,3.9935462054958166,5.9384971139977925,0.9999982388819001
460.0,0.92,0.002672257000085665,1.0352660636783098,0.1197733874848133,992.2990282343852,580.7508778552628,1573.0499060896482,15.986805763893404,15.986805763893404,19.983507204866743,3.993405602069615,5.922731780883996,0.999998239546775
470.0,0.9400000000000001,0.002763631999187055,1.0360651794822582,0.12050214581431754,993.0649809304472,579.1059382864563,1572.1709192169035,15.986524542926938,15.986524542926938,19.983155678658665,3.9932651087750837,5.906510412465861,0.9999982410042916
480.0,0.96,0.0033935089995793533,1.0368412606706017,0.12141268743731533,993.8088557521589,571.8686692555906,1565.6775250077494,15.986243429281698,15.986243429281698,19.982804286602114,3.993124671566442,5.889845990139406,0.9999982428253749
490.0,0.98,0.003362072000527405,1.0376510732119513,0.12253249610245773,994.5850628001762,565.171986333542,1559.7570491337183,15.985962756458918,15.985962756458918,19.982453445573643,3.992984457045181,5.873869225037323,0.9999982450649922
500.0,1.0,0.0027735059993574396,1.0382883927869864,0.12245550931680793,995.1959311623037,559.8267558650812,1555.022687027385,15.985682277251568,15.985682277251568,19.98210284656446,3.992844341706795,5.858809697912081,0.9999982449110186
510.0,1.02,0.002994454000145197,1.0389009188769855,0.12205051753086697,995.7830337455836,556.9761798527236,1552.7592135983073,15.985401694053762,15.985401694053762,19.981752117567204,3.9927041768790135,5.843352361498659,0.9999982441010351
520.0,1.04,0.0027978160014754394,1.0393925033800107,0.12203423971463646,996.2542157721649,554.1490041636289,1550.403219935794,15.985120993678935,15.985120993678935,19.981401242098677,3.992563955977422,5.827511112913829,0.9999982440684795
530.0,1.06,0.0031680319989391137,1.040000355598771,0.12292975871507698,996.8368436484963,547.8441183624061,1544.6809620109025,15.984840449494738,15.984840449494738,19.981050561868432,3.992423815559424,5.811277547854948,0.9999982458595175
540.0,1.08,0.002738302999205189,1.0407545860685494,0.12291077488760463,997.5597709417897,545.8530491355723,1543.412820077362,15.984560170104,15.984560170104,19.98070021263001,3.9922838098699254,5.794644772203202,0.9999982458215497
550.0,1.1,0.0029766700008622138,1.0415721476678044,0.12307273234706996,998.3434016321723,541.6320163557386,1539.975417987911,15.984279794264792,15.984279794264792,19.980349742831002,3.992143758458464,5.777611083202146,0.9999982461454647
560.0,1.12,0.0030543760003638454,1.0424994474653062,0.12468298751524559,999.2322218064563,537.6393470702443,1536.8715688767006,15.983999802867327,15.983999802867327,19.979999753584174,3.9920039015322306,5.760166421155025,0.999998249365975
570.0,1.1400000000000001,0.003389609000805649,1.042967668399961,0.12531020301922374,999.6810125090569,532.2381567960316,1531.9191693050884,15.983720096754263,15.983720096754263,19.979650120942843,3.991864189552908,5.744547026196048,0.999998250620406
580.0,1.16,0.002671621999979834,1.0432827286283233,0.1252842023083274,999.9829965773682,526.8252406038515,1526.8082371812197,15.983440500778025,15.983440500778025,19.97930062597255,3.991724535029864,5.731855038233312,0.9999982505684046
590.0,1.18,0.002966895999634289,1.0437490760337786,0.12533344102011523,1000.4299891985679,523.2372232243908,1523.6672124229588,15.9831608982879,15.9831608982879,19.9789511228599,3.991584879696239,5.71599083999466,0.9999982506668821
600.0,1.2,0.0029316839991224697,1.0441205508891087,0.12627793611502217,1000.7860503826289,518.9915945186597,1519.7776449012886,15.982881408459358,15.982881408459358,19.978601760574218,3.991445283076184,5.703877840796415,0.9999982525558723
610.0,1.22,0.0027039619999413844,1.0441671477696763,0.12642023963635318,1000.8307139062487,512.9731691437707,1513.8038830500195,15.98260223793095,15.98260223793095,19.978252797413713,3.991305848373678,5.691393450258763,0.9999982528404793
620.0,1.24,0.0029783110003336333,1.0442705017404508,0.12675099813467058,1000.9297796653386,503.36862539199075,1504.2984050573293,15.982323004769986,15.982323004769986,19.97790375596251,3.9911663848249987,5.688640868923379,0.9999982535019962
630.0,1.26,0.003861459999825456,1.044394642977201,0.1268452032804623,1001.0487690023512,502.07733618986794,1503.126105192219,15.98204384943942,15.98204384943942,19.97755481179931,3.9910269625844434,5.679800417573016,0.9999982536904065
640.0,1.28,0.0034098930009349715,1.0447728246018848,0.1266407692198185,1001.4112540046907,498.7598955666311,1500.1711495713218,15.981764712428683,15.981764712428683,19.97720589053589,3.9908875519286044,5.670598122208297,0.9999982532815385
650.0,1.3,0.0027934770005231258,1.045067847777359,0.12645953361826098,1001.6940320043384,495.0727481103663,1496.7667801147047,15.981485644727773,15.981485644727773,19.976857055909754,3.990748178322498,5.661033554895573,0.9999982529190672
660.0,1.32,0.002760560000751866,1.0453662405363915,0.12765593180194332,1001.9800452595855,489.9840797427024,1491.9641250022878,15.981206595879055,15.981206595879055,19.976508244848855,3.9906088165651283,5.647396126636569,0.9999982553118636
670.0,1.34,0.0027946640002483036,1.0453758110513494,0.12801742914472203,1001.9892200150318,483.929006919753,1485.9182269347848,15.980927889329932,15.980927889329932,19.97615986166245,3.9904696281869256,5.6394782158247505,0.9999982560348583
680.0,1.36,0.004261053998561692,1.0454615937767666,0.1291484971168285,1002.0714470042088,482.32650252611916,1484.3979495303279,15.980649444139011,15.980649444139011,19.97581180517379,3.990330572757195,5.631210397712074,0.9999982582969942
690.0,1.3800000000000001,0.0031571449999319157,1.045486009791838,0.12858105785705906,1002.0948473986177,474.5097498110237,1476.6045972096415,15.980371033231256,15.980371033231256,19.9754637915391,3.9901915368708845,5.625976354102329,0.9999982571621158
700.0,1.4000000000000001,0.003978570999606745,1.0456529118757325,0.12805993991077877,1002.2548203992326,472.32691782480777,1474.5817382240402,15.98009255712975,15.98009255712975,19.975115696412217,3.990052470850525,5.627786829637367,0.9999982561198798
710.0,1.42,0.0027357710005162517,1.0459180694696164,0.12816252130853586,1002.5089734778999,467.4477773823015,1469.9567508602013,15.979813867981461,15.979813867981461,19.97476733497686,3.9899133008645724,5.624794419185171,0.9999982563250426
720.0,1.44,0.003341242001624778,1.0462844722278524,0.12734613652016016,1002.8601660220382,457.949024766217,1460.8091907882554,15.979535143805856,15.979535143805856,19.974418929757356,3.989774115814476,5.624195768022595,0.999998254692273
730.0,1.46,0.0026829580001503928,1.0466986834169076,0.1283767004941962,1003.2571901965902,453.01869624154403,1456.2758864381342,15.979256379554897,15.979256379554897,19.974070474443657,3.9896349131804043,5.624659674323236,0.999998256753401
740.0,1.48,0.00326006400064216,1.0469993356451435,0.12896902243173458,1003.545366730326,448.78668825517667,1452.3320549855027,15.97897784731567,15.97897784731567,19.973722309144627,3.9894958288282023,5.6248436507197095,0.9999982579380449
750.0,1.5,0.0028066899994882988,1.0472888780559526,0.12881136462118334,1003.8228915311079,444.1402743922106,1447.9631659233185,15.978699430388907,15.978699430388907,19.973374287986175,3.989356804479856,5.624760293553312,0.9999982576227292
760.0,1.52,0.003035454001292237,1.047472166783171,0.1288784459367176,1003.9985734333364,438.2962372105567,1442.294810643893,15.97842107701783,15.97842107701783,19.973026346272324,3.989217814288869,5.6244135709665,0.9999982577568919
770.0,1.54,0.00276675500026613,1.0476356731707723,0.12950403178308206,1004.155296272507,435.7630059702691,1439.918302242776,15.978142764111766,15.978142764111766,19.972678455139743,3.9890788467240186,5.618105571651325,0.9999982590080636
780.0,1.56,0.0027954670003964566,1.0480012782452104,0.12891919561525314,1004.5057251662673,429.30625908759015,1433.8119842538574,15.977864535872488,15.977864535872488,19.97233066984064,3.988939923854559,5.625694111876354,0.9999982578383912
790.0,1.58,0.002810437999869464,1.0485126302558392,0.1278216083293991,1004.9958499483917,426.10988806091905,1431.1057380093107,15.977585922635615,15.977585922635615,19.971982403294547,3.988800811175059,5.628291588281198,0.9999982556432166
800.0,1.6,0.0030517649993271334,1.049065268206379,0.12802820715668992,1005.5255524069653,420.5782495140209,1426.1038019209861,15.977307242625514,15.977307242625514,19.971634053281925,3.988661667582089,5.6263828513222665,0.9999982560564143
810.0,1.62,0.0029590599988296162,1.049061057341156,0.13020621339623298,1005.5215250668703,415.0737421542852,1420.5952672211554,15.97702915202728,15.97702915202728,19.971286440034135,3.9885228206988987,5.6302425528124544,0.9999982604124268
